# Pulseq sequence file
# Created by MATLAB mr toolbox

[VERSION]
major 1
minor 4
revision 1

[DEFINITIONS]
AdcRasterTime 1e-07 
BlockDurationRaster 1e-05 
FOV 0.24 0.24 0.192 
GradientRasterTime 1e-05 
Name me_gre3d 
RadiofrequencyRasterTime 1e-06 
TotalDuration 165.36467 

# Format of blocks:
# NUM DUR RF  GX  GY  GZ  ADC  EXT
[BLOCKS]
    1  32   1   0   0   0  0  0
    2 150   0   3   4   5  0  0
    3   7   0   0   0   0  0  0
    4 526   0   6   1   2  0  0
    5   5   0   0   0   0  0  0
    6 150   0   7   0   8  0  0
    7 526   0   6   1   2  0  0
    8   4   0   0   0   0  0  0
    9 150   0   7   0   8  0  0
   10 526   0   6   1   2  0  0
   11   5   0   0   0   0  0  0
   12 150   0   7   0   8  0  0
   13 526   0   6   1   2  0  0
   14   5   0   0   0   0  0  0
   15 150   0   7   0   8  0  0
   16 526   0   6   1   2  0  0
   17   5   0   0   0   0  0  0
   18 150   0   7   0   8  0  0
   19 526   0   6   1   2  0  0
   20 195   0  11   9  10  0  0
   21   7   0   0   0   0  0  0
   22  32   2   0   0   0  0  0
   23 150   0   3   4   5  0  0
   24   7   0   0   0   0  0  0
   25 526   0   6   1   2  0  0
   26   5   0   0   0   0  0  0
   27 150   0   7   0   8  0  0
   28 526   0   6   1   2  0  0
   29   4   0   0   0   0  0  0
   30 150   0   7   0   8  0  0
   31 526   0   6   1   2  0  0
   32   5   0   0   0   0  0  0
   33 150   0   7   0   8  0  0
   34 526   0   6   1   2  0  0
   35   5   0   0   0   0  0  0
   36 150   0   7   0   8  0  0
   37 526   0   6   1   2  0  0
   38   5   0   0   0   0  0  0
   39 150   0   7   0   8  0  0
   40 526   0   6   1   2  0  0
   41 195   0  11   9  10  0  0
   42   7   0   0   0   0  0  0
   43  32   3   0   0   0  0  0
   44 150   0   3   4   5  0  0
   45   7   0   0   0   0  0  0
   46 526   0   6   1   2  0  0
   47   5   0   0   0   0  0  0
   48 150   0   7   0   8  0  0
   49 526   0   6   1   2  0  0
   50   4   0   0   0   0  0  0
   51 150   0   7   0   8  0  0
   52 526   0   6   1   2  0  0
   53   5   0   0   0   0  0  0
   54 150   0   7   0   8  0  0
   55 526   0   6   1   2  0  0
   56   5   0   0   0   0  0  0
   57 150   0   7   0   8  0  0
   58 526   0   6   1   2  0  0
   59   5   0   0   0   0  0  0
   60 150   0   7   0   8  0  0
   61 526   0   6   1   2  0  0
   62 195   0  11   9  10  0  0
   63   7   0   0   0   0  0  0
   64  32   4   0   0   0  0  0
   65 150   0   3   4   5  0  0
   66   7   0   0   0   0  0  0
   67 526   0   6   1   2  0  0
   68   5   0   0   0   0  0  0
   69 150   0   7   0   8  0  0
   70 526   0   6   1   2  0  0
   71   4   0   0   0   0  0  0
   72 150   0   7   0   8  0  0
   73 526   0   6   1   2  0  0
   74   5   0   0   0   0  0  0
   75 150   0   7   0   8  0  0
   76 526   0   6   1   2  0  0
   77   5   0   0   0   0  0  0
   78 150   0   7   0   8  0  0
   79 526   0   6   1   2  0  0
   80   5   0   0   0   0  0  0
   81 150   0   7   0   8  0  0
   82 526   0   6   1   2  0  0
   83 195   0  11   9  10  0  0
   84   7   0   0   0   0  0  0
   85  32   5   0   0   0  0  0
   86 150   0   3   4   5  0  0
   87   7   0   0   0   0  0  0
   88 526   0   6   1   2  0  0
   89   5   0   0   0   0  0  0
   90 150   0   7   0   8  0  0
   91 526   0   6   1   2  0  0
   92   4   0   0   0   0  0  0
   93 150   0   7   0   8  0  0
   94 526   0   6   1   2  0  0
   95   5   0   0   0   0  0  0
   96 150   0   7   0   8  0  0
   97 526   0   6   1   2  0  0
   98   5   0   0   0   0  0  0
   99 150   0   7   0   8  0  0
  100 526   0   6   1   2  0  0
  101   5   0   0   0   0  0  0
  102 150   0   7   0   8  0  0
  103 526   0   6   1   2  0  0
  104 195   0  11   9  10  0  0
  105   7   0   0   0   0  0  0
  106  32   2   0   0   0  0  0
  107 150   0   3   4   5  0  0
  108   7   0   0   0   0  0  0
  109 526   0   6   1   2  0  0
  110   5   0   0   0   0  0  0
  111 150   0   7   0   8  0  0
  112 526   0   6   1   2  0  0
  113   4   0   0   0   0  0  0
  114 150   0   7   0   8  0  0
  115 526   0   6   1   2  0  0
  116   5   0   0   0   0  0  0
  117 150   0   7   0   8  0  0
  118 526   0   6   1   2  0  0
  119   5   0   0   0   0  0  0
  120 150   0   7   0   8  0  0
  121 526   0   6   1   2  0  0
  122   5   0   0   0   0  0  0
  123 150   0   7   0   8  0  0
  124 526   0   6   1   2  0  0
  125 195   0  11   9  10  0  0
  126   7   0   0   0   0  0  0
  127  32   4   0   0   0  0  0
  128 150   0   3   4   5  0  0
  129   7   0   0   0   0  0  0
  130 526   0   6   1   2  0  0
  131   5   0   0   0   0  0  0
  132 150   0   7   0   8  0  0
  133 526   0   6   1   2  0  0
  134   4   0   0   0   0  0  0
  135 150   0   7   0   8  0  0
  136 526   0   6   1   2  0  0
  137   5   0   0   0   0  0  0
  138 150   0   7   0   8  0  0
  139 526   0   6   1   2  0  0
  140   5   0   0   0   0  0  0
  141 150   0   7   0   8  0  0
  142 526   0   6   1   2  0  0
  143   5   0   0   0   0  0  0
  144 150   0   7   0   8  0  0
  145 526   0   6   1   2  0  0
  146 195   0  11   9  10  0  0
  147   7   0   0   0   0  0  0
  148  32   6   0   0   0  0  0
  149 150   0   3   4   5  0  0
  150   7   0   0   0   0  0  0
  151 526   0   6   1   2  0  0
  152   5   0   0   0   0  0  0
  153 150   0   7   0   8  0  0
  154 526   0   6   1   2  0  0
  155   4   0   0   0   0  0  0
  156 150   0   7   0   8  0  0
  157 526   0   6   1   2  0  0
  158   5   0   0   0   0  0  0
  159 150   0   7   0   8  0  0
  160 526   0   6   1   2  0  0
  161   5   0   0   0   0  0  0
  162 150   0   7   0   8  0  0
  163 526   0   6   1   2  0  0
  164   5   0   0   0   0  0  0
  165 150   0   7   0   8  0  0
  166 526   0   6   1   2  0  0
  167 195   0  11   9  10  0  0
  168   7   0   0   0   0  0  0
  169  32   7   0   0   0  0  0
  170 150   0   3   4   5  0  0
  171   7   0   0   0   0  0  0
  172 526   0   6   1   2  0  0
  173   5   0   0   0   0  0  0
  174 150   0   7   0   8  0  0
  175 526   0   6   1   2  0  0
  176   4   0   0   0   0  0  0
  177 150   0   7   0   8  0  0
  178 526   0   6   1   2  0  0
  179   5   0   0   0   0  0  0
  180 150   0   7   0   8  0  0
  181 526   0   6   1   2  0  0
  182   5   0   0   0   0  0  0
  183 150   0   7   0   8  0  0
  184 526   0   6   1   2  0  0
  185   5   0   0   0   0  0  0
  186 150   0   7   0   8  0  0
  187 526   0   6   1   2  0  0
  188 195   0  11   9  10  0  0
  189   7   0   0   0   0  0  0
  190  32   1   0   0   0  0  0
  191 150   0   3   4   5  0  0
  192   7   0   0   0   0  0  0
  193 526   0   6   1   2  0  0
  194   5   0   0   0   0  0  0
  195 150   0   7   0   8  0  0
  196 526   0   6   1   2  0  0
  197   4   0   0   0   0  0  0
  198 150   0   7   0   8  0  0
  199 526   0   6   1   2  0  0
  200   5   0   0   0   0  0  0
  201 150   0   7   0   8  0  0
  202 526   0   6   1   2  0  0
  203   5   0   0   0   0  0  0
  204 150   0   7   0   8  0  0
  205 526   0   6   1   2  0  0
  206   5   0   0   0   0  0  0
  207 150   0   7   0   8  0  0
  208 526   0   6   1   2  0  0
  209 195   0  11   9  10  0  0
  210   7   0   0   0   0  0  0
  211  32   8   0   0   0  0  0
  212 150   0   3   4   5  0  0
  213   7   0   0   0   0  0  0
  214 526   0   6   1   2  0  0
  215   5   0   0   0   0  0  0
  216 150   0   7   0   8  0  0
  217 526   0   6   1   2  0  0
  218   4   0   0   0   0  0  0
  219 150   0   7   0   8  0  0
  220 526   0   6   1   2  0  0
  221   5   0   0   0   0  0  0
  222 150   0   7   0   8  0  0
  223 526   0   6   1   2  0  0
  224   5   0   0   0   0  0  0
  225 150   0   7   0   8  0  0
  226 526   0   6   1   2  0  0
  227   5   0   0   0   0  0  0
  228 150   0   7   0   8  0  0
  229 526   0   6   1   2  0  0
  230 195   0  11   9  10  0  0
  231   7   0   0   0   0  0  0
  232  32   3   0   0   0  0  0
  233 150   0   3   4   5  0  0
  234   7   0   0   0   0  0  0
  235 526   0   6   1   2  0  0
  236   5   0   0   0   0  0  0
  237 150   0   7   0   8  0  0
  238 526   0   6   1   2  0  0
  239   4   0   0   0   0  0  0
  240 150   0   7   0   8  0  0
  241 526   0   6   1   2  0  0
  242   5   0   0   0   0  0  0
  243 150   0   7   0   8  0  0
  244 526   0   6   1   2  0  0
  245   5   0   0   0   0  0  0
  246 150   0   7   0   8  0  0
  247 526   0   6   1   2  0  0
  248   5   0   0   0   0  0  0
  249 150   0   7   0   8  0  0
  250 526   0   6   1   2  0  0
  251 195   0  11   9  10  0  0
  252   7   0   0   0   0  0  0
  253  32   1   0   0   0  0  0
  254 150   0   3   4   5  0  0
  255   7   0   0   0   0  0  0
  256 526   0   6   1   2  0  0
  257   5   0   0   0   0  0  0
  258 150   0   7   0   8  0  0
  259 526   0   6   1   2  0  0
  260   4   0   0   0   0  0  0
  261 150   0   7   0   8  0  0
  262 526   0   6   1   2  0  0
  263   5   0   0   0   0  0  0
  264 150   0   7   0   8  0  0
  265 526   0   6   1   2  0  0
  266   5   0   0   0   0  0  0
  267 150   0   7   0   8  0  0
  268 526   0   6   1   2  0  0
  269   5   0   0   0   0  0  0
  270 150   0   7   0   8  0  0
  271 526   0   6   1   2  0  0
  272 195   0  11   9  10  0  0
  273   7   0   0   0   0  0  0
  274  32   5   0   0   0  0  0
  275 150   0   3   4   5  0  0
  276   7   0   0   0   0  0  0
  277 526   0   6   1   2  0  0
  278   5   0   0   0   0  0  0
  279 150   0   7   0   8  0  0
  280 526   0   6   1   2  0  0
  281   4   0   0   0   0  0  0
  282 150   0   7   0   8  0  0
  283 526   0   6   1   2  0  0
  284   5   0   0   0   0  0  0
  285 150   0   7   0   8  0  0
  286 526   0   6   1   2  0  0
  287   5   0   0   0   0  0  0
  288 150   0   7   0   8  0  0
  289 526   0   6   1   2  0  0
  290   5   0   0   0   0  0  0
  291 150   0   7   0   8  0  0
  292 526   0   6   1   2  0  0
  293 195   0  11   9  10  0  0
  294   7   0   0   0   0  0  0
  295  32   8   0   0   0  0  0
  296 150   0   3   4   5  0  0
  297   7   0   0   0   0  0  0
  298 526   0   6   1   2  0  0
  299   5   0   0   0   0  0  0
  300 150   0   7   0   8  0  0
  301 526   0   6   1   2  0  0
[RF]
1      208.333 3 4 5 100 0 3.49066
2      208.333 3 4 5 100 0 0.698132
3      208.333 3 4 5 100 0 5.93412
4      208.333 3 4 5 100 0 0.349066
5      208.333 3 4 5 100 0 2.79253
6      208.333 3 4 5 100 0 1.74533
7      208.333 3 4 5 100 0 4.88692
8      208.333 3 4 5 100 0 3.83972

# Format of arbitrary gradients:
#   time_shape_id of 0 means default timing (stepping with grad_raster starting at 1/2 of grad_raster)
# id amplitude amp_shape_id time_shape_id delay
# ..      Hz/m       ..         ..          us
[GRADIENTS]
1       383154 1 0 0
2       383184 2 0 0

# Format of trapezoid gradients:
# id amplitude rise flat fall delay
# ..      Hz/m   us   us   us    us
[TRAP]
 3      -356250  60 1380  60   0
 4     -2796.42  10 1480  10   0
 5     -3495.53  10 1480  10   0
 6       200000 130 5000 130   0
 7      -738129 110 1280 110   0
 8     -33432.2  10 1480  10   0
 9      2796.42  10 1480  10   0
10     -29936.6  10 1480  10   0
11  1.83214e+06 270 1410 270   0
12      -201247  30 1440  30   0
13      -344828  50 1400  50   0
14       201247  30 1440  30   0
15       310473  50 1400  50   0
16      -135135  20 1460  20   0
17       135135  20 1460  20   0
18      -121059  20 1460  20   0
19       121059  20 1460  20   0
20       -53132  10 1480  10   0
21        53132  10 1480  10   0
22     -41946.3  10 1480  10   0
23      41946.3  10 1480  10   0
24      39149.9  10 1480  10   0
25     -39149.9  10 1480  10   0
26      64317.7  10 1480  10   0
27     -64317.7  10 1480  10   0
28      90090.1  20 1460  20   0
29     -90090.1  20 1460  20   0
30       112613  20 1460  20   0
31      -112613  20 1460  20   0
32       153061  30 1440  30   0
33      -153061  30 1440  30   0
34       206916  30 1440  30   0
35      -206916  30 1440  30   0
36      -307471  50 1400  50   0
37      -341236  50 1400  50   0
38       307471  50 1400  50   0
39       306881  50 1400  50   0
40      -285388  40 1420  40   0
41       285388  40 1420  40   0
42      -259703  40 1420  40   0
43       259703  40 1420  40   0
44      -181406  30 1440  30   0
45       181406  30 1440  30   0
46      -172902  30 1440  30   0
47       172902  30 1440  30   0
48      -106982  20 1460  20   0
49       106982  20 1460  20   0
50     -76013.5  20 1460  20   0
51      76013.5  20 1460  20   0
52     -13982.1  10 1480  10   0
53      13982.1  10 1480  10   0
54      11185.7  10 1480  10   0
55     -11185.7  10 1480  10   0
56      78828.8  20 1460  20   0
57     -78828.8  20 1460  20   0
58       195578  30 1440  30   0
59      -195578  30 1440  30   0
60       248288  40 1420  40   0
61      -248288  40 1420  40   0
62      -231164  40 1420  40   0
63      -337644  50 1400  50   0
64       231164  40 1420  40   0
65       303289  50 1400  50   0
66     -92905.4  20 1460  20   0
67      92905.4  20 1460  20   0
68     -27964.2  10 1480  10   0
69      27964.2  10 1480  10   0
70      19574.9  10 1480  10   0
71     -19574.9  10 1480  10   0
72      30760.6  10 1480  10   0
73     -30760.6  10 1480  10   0
74       164399  30 1440  30   0
75      -164399  30 1440  30   0
76       215420  30 1440  30   0
77      -215420  30 1440  30   0
78       236872  40 1420  40   0
79      -236872  40 1420  40   0
80       330460  50 1400  50   0
81      -330460  50 1400  50   0
82      -219749  40 1420  40   0
83      -334052  50 1400  50   0
84       219749  40 1420  40   0
85       299697  50 1400  50   0
86      -161565  30 1440  30   0
87       161565  30 1440  30   0
88      -150227  30 1440  30   0
89       150227  30 1440  30   0
90      -101351  20 1460  20   0
91       101351  20 1460  20   0
92       126689  20 1460  20   0
93      -126689  20 1460  20   0
94       276826  40 1420  40   0
95      -276826  40 1420  40   0
96      -242580  40 1420  40   0
97       242580  40 1420  40   0
98       296105  50 1400  50   0
99      -115428  20 1460  20   0
100       115428  20 1460  20   0
101     -73198.2  20 1460  20   0
102      73198.2  20 1460  20   0
103     -36353.5  10 1480  10   0
104      36353.5  10 1480  10   0
105       147392  30 1440  30   0
106      -147392  30 1440  30   0
107       155896  30 1440  30   0
108      -155896  30 1440  30   0
109       298851  50 1400  50   0
110      -298851  50 1400  50   0
111      -318966  50 1400  50   0
112      -326868  50 1400  50   0
113       318966  50 1400  50   0
114       292513  50 1400  50   0
115      -282534  40 1420  40   0
116       282534  40 1420  40   0
117      -268265  40 1420  40   0
118       268265  40 1420  40   0
119      -204082  30 1440  30   0
120       204082  30 1440  30   0
121        98536  20 1460  20   0
122       -98536  20 1460  20   0
123       239726  40 1420  40   0
124      -239726  40 1420  40   0
125       316092  50 1400  50   0
126      -316092  50 1400  50   0
127      -333333  50 1400  50   0
128      -323276  50 1400  50   0
129       333333  50 1400  50   0
130       286943  40 1420  40   0
131      -234018  40 1420  40   0
132       234018  40 1420  40   0
133     -61521.3  10 1480  10   0
134      61521.3  10 1480  10   0
135      47539.1  10 1480  10   0
136     -47539.1  10 1480  10   0
137       123874  20 1460  20   0
138      -123874  20 1460  20   0
139       225457  40 1420  40   0
140      -225457  40 1420  40   0
141       265411  40 1420  40   0
142      -265411  40 1420  40   0
143       336207  50 1400  50   0
144      -336207  50 1400  50   0
145      -251142  40 1420  40   0
146      -319684  50 1400  50   0
147       251142  40 1420  40   0
148       283375  40 1420  40   0
149      -184240  30 1440  30   0
150       184240  30 1440  30   0
151      -143581  20 1460  20   0
152       143581  20 1460  20   0
153      -104167  20 1460  20   0
154       104167  20 1460  20   0
155     -81644.1  20 1460  20   0
156      81644.1  20 1460  20   0
157      5592.84  10 1480  10   0
158     -5592.84  10 1480  10   0
159        33557  10 1480  10   0
160       -33557  10 1480  10   0
161      58724.8  10 1480  10   0
162     -58724.8  10 1480  10   0
163      67114.1  10 1480  10   0
164     -67114.1  10 1480  10   0
165       132320  20 1460  20   0
166      -132320  20 1460  20   0
167       175737  30 1440  30   0
168      -175737  30 1440  30   0
169       192744  30 1440  30   0
170      -192744  30 1440  30   0
171      -295977  50 1400  50   0
172       295977  50 1400  50   0
173       279808  40 1420  40   0
174      -262557  40 1420  40   0
175       262557  40 1420  40   0
176     -95720.7  20 1460  20   0
177      95720.7  20 1460  20   0
178      84459.5  20 1460  20   0
179     -84459.5  20 1460  20   0
180       158730  30 1440  30   0
181      -158730  30 1440  30   0
182      -312500  50 1400  50   0
183       344828  50 1400  50   0
184       276240  40 1420  40   0
185     -69910.5  10 1480  10   0
186      69910.5  10 1480  10   0
187            0  10 1480  10   0
188           -0  10 1480  10   0
189      44742.7  10 1480  10   0
190     -44742.7  10 1480  10   0
191       118243  20 1460  20   0
192      -118243  20 1460  20   0
193       209751  30 1440  30   0
194      -209751  30 1440  30   0
195      -308908  50 1400  50   0
196       272673  40 1420  40   0
197     -55928.4  10 1480  10   0
198      55928.4  10 1480  10   0
199      -305316  50 1400  50   0
200       269106  40 1420  40   0
201      -271119  40 1420  40   0
202       271119  40 1420  40   0
203      -198413  30 1440  30   0
204       198413  30 1440  30   0
205      8389.26  10 1480  10   0
206     -8389.26  10 1480  10   0
207      22371.4  10 1480  10   0
208     -22371.4  10 1480  10   0
209      -301724  50 1400  50   0
210       265538  40 1420  40   0
211     -87274.8  20 1460  20   0
212      87274.8  20 1460  20   0
213     -16778.5  10 1480  10   0
214      16778.5  10 1480  10   0
215       288242  40 1420  40   0
216      -288242  40 1420  40   0
217      -321839  50 1400  50   0
218      -298132  50 1400  50   0
219       321839  50 1400  50   0
220       261971  40 1420  40   0
221      -212585  30 1440  30   0
222       212585  30 1440  30   0
223       167234  30 1440  30   0
224      -167234  30 1440  30   0
225       304598  50 1400  50   0
226      -304598  50 1400  50   0
227      -293103  50 1400  50   0
228      -294540  50 1400  50   0
229       293103  50 1400  50   0
230       258404  40 1420  40   0
231      -137950  20 1460  20   0
232       137950  20 1460  20   0
233       341954  50 1400  50   0
234      -341954  50 1400  50   0
235      -288955  40 1420  40   0
236       254836  40 1420  40   0
237       327586  50 1400  50   0
238      -327586  50 1400  50   0
239       251269  40 1420  40   0
240      25167.8  10 1480  10   0
241     -25167.8  10 1480  10   0
242       279680  40 1420  40   0
243      -279680  40 1420  40   0
244      -310345  50 1400  50   0
245      -281821  40 1420  40   0
246       310345  50 1400  50   0
247       247702  40 1420  40   0
248      -140766  20 1460  20   0
249       140766  20 1460  20   0
250       253995  40 1420  40   0
251      -253995  40 1420  40   0
252      -278253  40 1420  40   0
253       244134  40 1420  40   0
254      -178571  30 1440  30   0
255       178571  30 1440  30   0
256       109797  20 1460  20   0
257      -109797  20 1460  20   0
258       170068  30 1440  30   0
259      -170068  30 1440  30   0
260      -274686  40 1420  40   0
261       240567  40 1420  40   0
262      -228311  40 1420  40   0
263       228311  40 1420  40   0
264       237000  40 1420  40   0
265      -187075  30 1440  30   0
266       187075  30 1440  30   0
267      50335.6  10 1480  10   0
268     -50335.6  10 1480  10   0
269       339080  50 1400  50   0
270      -339080  50 1400  50   0
271      -267551  40 1420  40   0
272       233432  40 1420  40   0
273       313218  50 1400  50   0
274      -313218  50 1400  50   0
275      -263984  40 1420  40   0
276       229865  40 1420  40   0
277      -260417  40 1420  40   0
278       226298  40 1420  40   0
279      -256849  40 1420  40   0
280       222730  40 1420  40   0
281      -129505  20 1460  20   0
282       129505  20 1460  20   0
283      -253282  40 1420  40   0
284       219163  40 1420  40   0
285      -249715  40 1420  40   0
286       214129  30 1440  30   0
287      -246147  40 1420  40   0
288       210586  30 1440  30   0
289      -273973  40 1420  40   0
290       273973  40 1420  40   0
291       207043  30 1440  30   0
292      -239013  40 1420  40   0
293       203500  30 1440  30   0
294      -235445  40 1420  40   0
295       199957  30 1440  30   0
296      -222603  40 1420  40   0
297       222603  40 1420  40   0
298       301724  50 1400  50   0
299      -231878  40 1420  40   0
300       196413  30 1440  30   0
301       192870  30 1440  30   0
302      -224743  40 1420  40   0
303       189327  30 1440  30   0
304      -221176  40 1420  40   0
305       185784  30 1440  30   0
306      -245434  40 1420  40   0
307       245434  40 1420  40   0
308      -216128  30 1440  30   0
309       182241  30 1440  30   0
310      -189909  30 1440  30   0
311       189909  30 1440  30   0
312      -324713  50 1400  50   0
313       324713  50 1400  50   0
314       178698  30 1440  30   0
315      -209042  30 1440  30   0
316       175155  30 1440  30   0
317      -205499  30 1440  30   0
318       171612  30 1440  30   0
319      -201956  30 1440  30   0
320       168069  30 1440  30   0
321       164526  30 1440  30   0
322       256849  40 1420  40   0
323      -194870  30 1440  30   0
324       160983  30 1440  30   0
325      -191327  30 1440  30   0
326       157440  30 1440  30   0
327      -187783  30 1440  30   0
328       153896  30 1440  30   0
329       150353  30 1440  30   0
330      -180697  30 1440  30   0
331       146810  30 1440  30   0
332      -177154  30 1440  30   0
333       142299  20 1460  20   0
334      -173611  30 1440  30   0
335       138780  20 1460  20   0
336       135261  20 1460  20   0
337      -166525  30 1440  30   0
338       131742  20 1460  20   0
339      -162982  30 1440  30   0
340       128223  20 1460  20   0
341      -159439  30 1440  30   0
342       124703  20 1460  20   0
343       121184  20 1460  20   0
344      -152353  30 1440  30   0
345       117665  20 1460  20   0
346      -148810  30 1440  30   0
347       114146  20 1460  20   0
348      -144285  20 1460  20   0
349       110627  20 1460  20   0
350       107108  20 1460  20   0
351      -137247  20 1460  20   0
352       103589  20 1460  20   0
353      -133727  20 1460  20   0
354       100069  20 1460  20   0
355      -130208  20 1460  20   0
356      96550.3  20 1460  20   0
357      93031.1  20 1460  20   0
358      -123170  20 1460  20   0
359        89512  20 1460  20   0
360      -119651  20 1460  20   0
361      85992.8  20 1460  20   0
362      -116132  20 1460  20   0
363      82473.7  20 1460  20   0
364      78954.6  20 1460  20   0
365      -109093  20 1460  20   0
366      75435.4  20 1460  20   0
367      -105574  20 1460  20   0
368      71433.6  10 1480  10   0
369      -102055  20 1460  20   0
370      67938.1  10 1480  10   0
371      64442.6  10 1480  10   0
372     -95016.9  20 1460  20   0
373        60947  10 1480  10   0
374     -91497.7  20 1460  20   0
375      57451.5  10 1480  10   0
376     -87978.6  20 1460  20   0
377        53956  10 1480  10   0
378      50460.5  10 1480  10   0
379     -80940.3  20 1460  20   0
380      46964.9  10 1480  10   0
381     -77421.2  20 1460  20   0
382      43469.4  10 1480  10   0
383       -73902  20 1460  20   0
384      39973.9  10 1480  10   0
385      36478.4  10 1480  10   0
386       -66415  10 1480  10   0
387      32982.8  10 1480  10   0
388     -62919.5  10 1480  10   0
389      29487.3  10 1480  10   0
390     -59423.9  10 1480  10   0
391      25991.8  10 1480  10   0
392      22496.3  10 1480  10   0
393     -52432.9  10 1480  10   0
394      19000.7  10 1480  10   0
395     -48937.4  10 1480  10   0
396      15505.2  10 1480  10   0
397     -45441.8  10 1480  10   0
398      12009.7  10 1480  10   0
399      8514.15  10 1480  10   0
400     -38450.8  10 1480  10   0
401      5018.62  10 1480  10   0
402     -34955.3  10 1480  10   0
403       1523.1  10 1480  10   0
404     -31459.7  10 1480  10   0
405     -1972.43  10 1480  10   0
406     -5467.96  10 1480  10   0
407     -24468.7  10 1480  10   0
408     -8963.48  10 1480  10   0
409     -20973.2  10 1480  10   0
410       -12459  10 1480  10   0
411     -17477.6  10 1480  10   0
412     -15954.5  10 1480  10   0
413     -19450.1  10 1480  10   0
414     -10486.6  10 1480  10   0
415     -22945.6  10 1480  10   0
416     -6991.05  10 1480  10   0
417     -26441.1  10 1480  10   0
418      3495.53  10 1480  10   0
419     -36927.7  10 1480  10   0
420      6991.05  10 1480  10   0
421     -40423.2  10 1480  10   0
422      10486.6  10 1480  10   0
423     -43918.7  10 1480  10   0
424     -47414.3  10 1480  10   0
425      17477.6  10 1480  10   0
426     -50909.8  10 1480  10   0
427      20973.2  10 1480  10   0
428     -54405.3  10 1480  10   0
429      24468.7  10 1480  10   0
430     -57900.8  10 1480  10   0
431     -61396.4  10 1480  10   0
432      31459.7  10 1480  10   0
433     -64891.9  10 1480  10   0
434      34955.3  10 1480  10   0
435     -68387.4  10 1480  10   0
436      38450.8  10 1480  10   0
437     -71882.9  10 1480  10   0
438     -75887.8  20 1460  20   0
439      45441.8  10 1480  10   0
440     -79406.9  20 1460  20   0
441      48937.4  10 1480  10   0
442     -82926.1  20 1460  20   0
443      52432.9  10 1480  10   0
444     -86445.2  20 1460  20   0
445     -89964.4  20 1460  20   0
446      59423.9  10 1480  10   0
447     -93483.5  20 1460  20   0
448      62919.5  10 1480  10   0
449     -97002.6  20 1460  20   0
450        66415  10 1480  10   0
451      -100522  20 1460  20   0
452      -104041  20 1460  20   0
453        73902  20 1460  20   0
454      -107560  20 1460  20   0
455      77421.2  20 1460  20   0
456      -111079  20 1460  20   0
457      80940.3  20 1460  20   0
458      -114598  20 1460  20   0
459      -118118  20 1460  20   0
460      87978.6  20 1460  20   0
461      -121637  20 1460  20   0
462      91497.7  20 1460  20   0
463      -125156  20 1460  20   0
464      95016.9  20 1460  20   0
465      -128675  20 1460  20   0
466      -132194  20 1460  20   0
467       102055  20 1460  20   0
468      -135713  20 1460  20   0
469       105574  20 1460  20   0
470      -139232  20 1460  20   0
471       109093  20 1460  20   0
472      -142752  20 1460  20   0
473      -147266  30 1440  30   0
474       116132  20 1460  20   0
475      -150809  30 1440  30   0
476       119651  20 1460  20   0
477      -154352  30 1440  30   0
478       123170  20 1460  20   0
479      -157895  30 1440  30   0
480      -161438  30 1440  30   0
481       130208  20 1460  20   0
482      -164981  30 1440  30   0
483       133727  20 1460  20   0
484      -168524  30 1440  30   0
485       137247  20 1460  20   0
486      -172067  30 1440  30   0
487      -175610  30 1440  30   0
488       144285  20 1460  20   0
489      -179153  30 1440  30   0
490       148810  30 1440  30   0
491      -182697  30 1440  30   0
492       152353  30 1440  30   0
493      -186240  30 1440  30   0
494      -189783  30 1440  30   0
495       159439  30 1440  30   0
496      -193326  30 1440  30   0
497       162982  30 1440  30   0
498      -196869  30 1440  30   0
499       166525  30 1440  30   0
500      -200412  30 1440  30   0
501      -203955  30 1440  30   0
502       173611  30 1440  30   0
503      -207498  30 1440  30   0
504       177154  30 1440  30   0
505      -211041  30 1440  30   0
506       180697  30 1440  30   0
507      -214584  30 1440  30   0
508      -219621  40 1420  40   0
509       187783  30 1440  30   0
510      -223189  40 1420  40   0
511       191327  30 1440  30   0
512      -226756  40 1420  40   0
513       194870  30 1440  30   0
514      -230323  40 1420  40   0
515      -233891  40 1420  40   0
516       201956  30 1440  30   0
517      -237458  40 1420  40   0
518       205499  30 1440  30   0
519      -241026  40 1420  40   0
520       209042  30 1440  30   0
521      -244593  40 1420  40   0
522      -248160  40 1420  40   0
523       216128  30 1440  30   0
524      -251728  40 1420  40   0
525       221176  40 1420  40   0
526      -255295  40 1420  40   0
527       224743  40 1420  40   0
528      -258862  40 1420  40   0
529      -262430  40 1420  40   0
530       231878  40 1420  40   0
531      -265997  40 1420  40   0
532       235445  40 1420  40   0
533      -269564  40 1420  40   0
534       239013  40 1420  40   0
535      -273132  40 1420  40   0
536      -276699  40 1420  40   0
537       246147  40 1420  40   0
538      -280266  40 1420  40   0
539       249715  40 1420  40   0
540      -283834  40 1420  40   0
541       253282  40 1420  40   0
542      -287401  40 1420  40   0
543      -292975  50 1400  50   0
544       260417  40 1420  40   0
545      -296567  50 1400  50   0
546       263984  40 1420  40   0
547      -300159  50 1400  50   0
548       267551  40 1420  40   0
549      -303751  50 1400  50   0
550      -307343  50 1400  50   0
551       274686  40 1420  40   0
552      -310935  50 1400  50   0
553       278253  40 1420  40   0
554      -314527  50 1400  50   0
555       281821  40 1420  40   0
556      -318119  50 1400  50   0
557      -321711  50 1400  50   0
558       288955  40 1420  40   0
559      -325303  50 1400  50   0
560       294540  50 1400  50   0
561      -328895  50 1400  50   0
562       298132  50 1400  50   0
563      -332487  50 1400  50   0
564      -336079  50 1400  50   0
565       305316  50 1400  50   0
566      -339671  50 1400  50   0
567       308908  50 1400  50   0
568      -343262  50 1400  50   0
569       312500  50 1400  50   0
570      -346854  50 1400  50   0
571      -350446  50 1400  50   0
572       319684  50 1400  50   0
