# Pulseq sequence file
# Created by MATLAB mr toolbox

[VERSION]
major 1
minor 4
revision 1

[DEFINITIONS]
AdcRasterTime 1e-07 
BlockDurationRaster 1e-05 
FOV 0.224 0.224 0.192 
GradientRasterTime 1e-05 
Name me_gre3d 
RadiofrequencyRasterTime 1e-06 
TotalDuration 57.73777 

# Format of blocks:
# NUM DUR RF  GX  GY  GZ  ADC  EXT
[BLOCKS]
   1  32   1   0   0   0  0  0
   2 100   0   3   4   5  0  0
   3  15   0   0   0   0  0  0
   4 538   0   6   0   0  0  0
   5 100   0   9   7   8  0  0
   6 3566   0   0   0   0  0  0
   7  32   2   0   0   0  0  0
   8 100   0   3   4   5  0  0
   9  15   0   0   0   0  0  0
  10 538   0   6   0   0  0  0
  11 100   0   9   7   8  0  0
  12 3566   0   0   0   0  0  0
  13  32   3   0   0   0  0  0
  14 100   0   3   4   5  0  0
  15  15   0   0   0   0  0  0
  16 538   0   6   0   0  0  0
  17 100   0   9   7   8  0  0
  18 3566   0   0   0   0  0  0
  19  32   4   0   0   0  0  0
  20 100   0   3   4   5  0  0
  21  15   0   0   0   0  0  0
  22 538   0   6   0   0  0  0
  23 100   0   9   7   8  0  0
  24 3566   0   0   0   0  0  0
  25  32   5   0   0   0  0  0
  26 100   0   3   4   5  0  0
  27  15   0   0   0   0  0  0
  28 538   0   6   0   0  0  0
  29 100   0   9   7   8  0  0
  30 3566   0   0   0   0  0  0
  31  32   2   0   0   0  0  0
  32 100   0   3   4   5  0  0
  33  15   0   0   0   0  0  0
  34 538   0   6   0   0  0  0
  35 100   0   9   7   8  0  0
  36 3566   0   0   0   0  0  0
  37  32   4   0   0   0  0  0
  38 100   0   3   4   5  0  0
  39  15   0   0   0   0  0  0
  40 538   0   6   0   0  0  0
  41 100   0   9   7   8  0  0
  42 3566   0   0   0   0  0  0
  43  32   6   0   0   0  0  0
  44 100   0   3   4   5  0  0
  45  15   0   0   0   0  0  0
  46 538   0   6   0   0  0  0
  47 100   0   9   7   8  0  0
  48 3566   0   0   0   0  0  0
  49  32   7   0   0   0  0  0
  50 100   0   3   4   5  0  0
  51  15   0   0   0   0  0  0
  52 538   0   6   0   0  0  0
  53 100   0   9   7   8  0  0
  54 3566   0   0   0   0  0  0
  55  32   1   0   0   0  0  0
  56 100   0   3   4   5  0  0
  57  15   0   0   0   0  0  0
  58 538   0   6   0   0  0  0
  59 100   0   9   7   8  0  0
  60 3566   0   0   0   0  0  0
  61  32   8   0   0   0  0  0
  62 100   0   3   4   5  0  0
  63  15   0   0   0   0  0  0
  64 538   0   6   0   0  0  0
  65 100   0   9   7   8  0  0
  66 3566   0   0   0   0  0  0
  67  32   3   0   0   0  0  0
  68 100   0   3   4   5  0  0
  69  15   0   0   0   0  0  0
  70 538   0   6   0   0  0  0
  71 100   0   9   7   8  0  0
  72 3566   0   0   0   0  0  0
  73  32   1   0   0   0  0  0
  74 100   0   3   4   5  0  0
  75  15   0   0   0   0  0  0
  76 538   0   6   0   0  0  0
  77 100   0   9   7   8  0  0
  78 3566   0   0   0   0  0  0
  79  32   5   0   0   0  0  0
  80 100   0   3   4   5  0  0
  81  15   0   0   0   0  0  0
  82 538   0   6   0   0  0  0
  83 100   0   9   7   8  0  0
  84 3566   0   0   0   0  0  0
  85  32   8   0   0   0  0  0
  86 100   0   3   4   5  0  0
  87  15   0   0   0   0  0  0
  88 538   0   6   0   0  0  0
  89 100   0   9   7   8  0  0
  90 3566   0   0   0   0  0  0
  91  32   4   0   0   0  0  0
  92 100   0   3   4   5  0  0
  93  15   0   0   0   0  0  0
  94 538   0   6   0   0  0  0
  95 100   0   9   7   8  0  0
  96 3566   0   0   0   0  0  0
  97  32   7   0   0   0  0  0
  98 100   0   3   4   5  0  0
  99  15   0   0   0   0  0  0
 100 538   0   6   0   0  0  0
 101 100   0   9   7   8  0  0
 102 3566   0   0   0   0  0  0
 103  32   7   0   0   0  0  0
 104 100   0   3   4   5  0  0
 105  15   0   0   0   0  0  0
 106 538   0   6   0   0  0  0
 107 100   0   9   7   8  0  0
 108 3566   0   0   0   0  0  0
 109  32   4   0   0   0  0  0
 110 100   0   3   4   5  0  0
 111  15   0   0   0   0  0  0
 112 538   0   6   0   0  0  0
 113 100   0   9   7   8  0  0
 114 3566   0   0   0   0  0  0
 115  32   8   0   0   0  0  0
 116 100   0   3   4   5  0  0
 117  15   0   0   0   0  0  0
 118 538   0   6   0   0  0  0
 119 100   0   9   7   8  0  0
 120 3566   0   0   0   0  0  0
 121  32   5   0   0   0  0  0
 122 100   0   3   4   5  0  0
 123  15   0   0   0   0  0  0
 124 538   0   6   0   0  0  0
 125 100   0   9   7   8  0  0
 126 3566   0   0   0   0  0  0
 127  32   1   0   0   0  0  0
 128 100   0   3   4   5  0  0
 129  15   0   0   0   0  0  0
 130 538   0   6   0   0  0  0
 131 100   0   9   7   8  0  0
 132 3566   0   0   0   0  0  0
 133  32   3   0   0   0  0  0
 134 100   0   3   4   5  0  0
 135  15   0   0   0   0  0  0
 136 538   0   6   0   0  0  0
 137 100   0   9   7   8  0  0
 138 3566   0   0   0   0  0  0
 139  32   8   0   0   0  0  0
 140 100   0   3   4   5  0  0
 141  15   0   0   0   0  0  0
 142 538   0   6   0   0  0  0
 143 100   0   9   7   8  0  0
 144 3566   0   0   0   0  0  0
 145  32   1   0   0   0  0  0
 146 100   0   3   4   5  0  0
 147  15   0   0   0   0  0  0
 148 538   0   6   0   0  0  0
 149 100   0   9   7   8  0  0
 150 3566   0   0   0   0  0  0
 151  32   7   0   0   0  0  0
 152 100   0   3   4   5  0  0
 153  15   0   0   0   0  0  0
 154 538   0   6   0   0  0  0
 155 100   0   9   7   8  0  0
 156 3566   0   0   0   0  0  0
 157  32   6   0   0   0  0  0
 158 100   0   3   4   5  0  0
 159  15   0   0   0   0  0  0
 160 538   0   6   0   0  0  0
 161 100   0   9   7   8  0  0
 162 3566   0   0   0   0  0  0
 163  32   4   0   0   0  0  0
 164 100   0   3   4   5  0  0
 165  15   0   0   0   0  0  0
 166 538   0   6   0   0  0  0
 167 100   0   9   7   8  0  0
 168 3566   0   0   0   0  0  0
 169  32   2   0   0   0  0  0
 170 100   0   3   4   5  0  0
 171  15   0   0   0   0  0  0
 172 538   0   6   0   0  0  0
 173 100   0   9   7   8  0  0
 174 3566   0   0   0   0  0  0
 175  32   5   0   0   0  0  0
 176 100   0   3   4   5  0  0
 177  15   0   0   0   0  0  0
 178 538   0   6   0   0  0  0
 179 100   0   9   7   8  0  0
 180 3566   0   0   0   0  0  0
 181  32   4   0   0   0  0  0
 182 100   0   3   4   5  0  0
 183  15   0   0   0   0  0  0
 184 538   0   6   0   0  0  0
 185 100   0   9   7   8  0  0
 186 3566   0   0   0   0  0  0
 187  32   3   0   0   0  0  0
 188 100   0   3   4   5  0  0
 189  15   0   0   0   0  0  0
 190 538   0   6   0   0  0  0
 191 100   0   9   7   8  0  0
 192 3566   0   0   0   0  0  0
 193  32   2   0   0   0  0  0
 194 100   0   3   4   5  0  0
 195  15   0   0   0   0  0  0
 196 538   0   6   0   0  0  0
 197 100   0   9   7   8  0  0
 198 3566   0   0   0   0  0  0
 199  32   1   0   0   0  0  0
 200 100   0   3   4   5  0  0
 201  15   0   0   0   0  0  0
 202 538   0   6   0   0  0  0
 203 100   0   9   7   8  0  0
 204 3566   0   0   0   0  0  0
 205  32   6   0   0   0  0  0
 206 100   0   3   4   5  0  0
 207  15   0   0   0   0  0  0
 208 538   0   6   0   0  0  0
 209 100   0   9   7   8  0  0
 210 3566   0   0   0   0  0  0
 211  32   6   0   0   0  0  0
 212 100   0   3   4   5  0  0
 213  15   0   0   0   0  0  0
 214 538   0   6   0   0  0  0
 215 100   0   9   7   8  0  0
 216 3566   0   0   0   0  0  0
 217  32   1   0   0   0  0  0
 218 100   0   3   4   5  0  0
 219  15   0   0   0   0  0  0
 220 538   0   6   0   0  0  0
 221 100   0   9   7   8  0  0
 222 3566   0   0   0   0  0  0
 223  32   2   0   0   0  0  0
 224 100   0   3   4   5  0  0
 225  15   0   0   0   0  0  0
 226 538   0   6   0   0  0  0
 227 100   0   9   7   8  0  0
 228 3566   0   0   0   0  0  0
 229  32   3   0   0   0  0  0
 230 100   0   3   4   5  0  0
 231  15   0   0   0   0  0  0
 232 538   0   6   0   0  0  0
 233 100   0   9   7   8  0  0
 234 3566   0   0   0   0  0  0
 235  32   4   0   0   0  0  0
 236 100   0   3   4   5  0  0
 237  15   0   0   0   0  0  0
 238 538   0   6   0   0  0  0
 239 100   0   9   7   8  0  0
 240 3566   0   0   0   0  0  0
 241  32   5   0   0   0  0  0
 242 100   0   3   4   5  0  0
 243  15   0   0   0   0  0  0
 244 538   0   6   0   0  0  0
 245 100   0   9   7   8  0  0
 246 3566   0   0   0   0  0  0
 247  32   2   0   0   0  0  0
 248 100   0   3   4   5  0  0
 249  15   0   0   0   0  0  0
 250 538   0   6   0   0  0  0
 251 100   0   9   7   8  0  0
 252 3566   0   0   0   0  0  0
 253  32   4   0   0   0  0  0
 254 100   0   3   4   5  0  0
 255  15   0   0   0   0  0  0
 256 538   0   6   0   0  0  0
 257 100   0   9   7   8  0  0
 258 3566   0   0   0   0  0  0
 259  32   6   0   0   0  0  0
 260 100   0   3   4   5  0  0
 261  15   0   0   0   0  0  0
 262 538   0   6   0   0  0  0
 263 100   0   9   7   8  0  0
 264 3566   0   0   0   0  0  0
 265  32   7   0   0   0  0  0
 266 100   0   3   4   5  0  0
 267  15   0   0   0   0  0  0
 268 538   0   6   0   0  0  0
 269 100   0   9   7   8  0  0
 270 3566   0   0   0   0  0  0
 271  32   1   0   0   0  0  0
 272 100   0   3   4   5  0  0
 273  15   0   0   0   0  0  0
 274 538   0   6   0   0  0  0
 275 100   0   9   7   8  0  0
 276 3566   0   0   0   0  0  0
 277  32   8   0   0   0  0  0
 278 100   0   3   4   5  0  0
 279  15   0   0   0   0  0  0
 280 538   0   6   0   0  0  0
 281 100   0   9   7   8  0  0
 282 3566   0   0   0   0  0  0
 283  32   3   0   0   0  0  0
 284 100   0   3   4   5  0  0
 285  15   0   0   0   0  0  0
 286 538   0   6   0   0  0  0
 287 100   0   9   7   8  0  0
 288 3566   0   0   0   0  0  0
 289  32   1   0   0   0  0  0
 290 100   0   3   4   5  0  0
 291  15   0   0   0   0  0  0
 292 538   0   6   0   0  0  0
 293 100   0   9   7   8  0  0
 294 3566   0   0   0   0  0  0
 295  32   5   0   0   0  0  0
 296 100   0   3   4   5  0  0
 297  15   0   0   0   0  0  0
 298 538   0   6   0   0  0  0
 299 100   0   9   7   8  0  0
 300 3566   0   0   0   0  0  0
 301  32   8   0   0   0  0  0
 302 100   0   3   4   5  0  0
 303  15   0   0   0   0  0  0
 304 538   0   6   0   0  0  0
 305 100   0   9   7   8  0  0
 306 3566   0   0   0   0  0  0
 307  32   4   0   0   0  0  0
 308 100   0   3   4   5  0  0
 309  15   0   0   0   0  0  0
[RF]
1      208.333 3 4 5 100 0 3.49066
2      208.333 3 4 5 100 0 0.698132
3      208.333 3 4 5 100 0 5.93412
4      208.333 3 4 5 100 0 0.349066
5      208.333 3 4 5 100 0 2.79253
6      208.333 3 4 5 100 0 1.74533
7      208.333 3 4 5 100 0 4.88692
8      208.333 3 4 5 100 0 3.83972

# Format of arbitrary gradients:
#   time_shape_id of 0 means default timing (stepping with grad_raster starting at 1/2 of grad_raster)
# id amplitude amp_shape_id time_shape_id delay
# ..      Hz/m       ..         ..          us
[GRADIENTS]
1       509904 1 0 0
2       510912 2 0 0

# Format of trapezoid gradients:
# id amplitude rise flat fall delay
# ..      Hz/m   us   us   us    us
[TRAP]
 3      -270312  40  920  40   0
 4     -4509.38  10  980  10   0
 5     -5260.94  10  980  10   0
 6       100000 190 5000 190   0
 7      4509.38  10  980  10   0
 8      5260.94  10  980  10   0
 9  1.28148e+06 190  620 190   0
10      -207106  30  940  30   0
11      -260417  40  920  40   0
12       207106  30  940  30   0
13       260417  40  920  40   0
14      -188697  30  940  30   0
15       188697  30  940  30   0
16      -113885  20  960  20   0
17       113885  20  960  20   0
18       118440  20  960  20   0
19      -118440  20  960  20   0
20       193299  30  940  30   0
21      -193299  30  940  30   0
22       246466  40  920  40   0
23      -246466  40  920  40   0
24      -136662  20  960  20   0
25      -254991  40  920  40   0
26       136662  20  960  20   0
27       254991  40  920  40   0
28     -72150.1  10  980  10   0
29      72150.1  10  980  10   0
30       -36075  10  980  10   0
31        36075  10  980  10   0
32      49603.2  10  980  10   0
33     -49603.2  10  980  10   0
34       100219  20  960  20   0
35      -100219  20  960  20   0
36     -18037.5  10  980  10   0
37      -249566  40  920  40   0
38      18037.5  10  980  10   0
39       249566  40  920  40   0
40      27056.3  10  980  10   0
41     -27056.3  10  980  10   0
42       151878  30  940  30   0
43      -151878  30  940  30   0
44      9018.76  10  980  10   0
45      -244141  40  920  40   0
46     -9018.76  10  980  10   0
47       244141  40  920  40   0
48      -165685  30  940  30   0
49      -238715  40  920  40   0
50       165685  30  940  30   0
51       238715  40  920  40   0
52     -91107.9  20  960  20   0
53      91107.9  20  960  20   0
54     -54112.6  10  980  10   0
55      54112.6  10  980  10   0
56      45093.8  10  980  10   0
57     -45093.8  10  980  10   0
58       122996  20  960  20   0
59      -122996  20  960  20   0
60       170287  30  940  30   0
61      -170287  30  940  30   0
62      -255766  40  920  40   0
63      -233290  40  920  40   0
64       255766  40  920  40   0
65       233290  40  920  40   0
66      -216311  30  940  30   0
67       216311  30  940  30   0
68     -31565.7  10  980  10   0
69      31565.7  10  980  10   0
70      58621.9  10  980  10   0
71     -58621.9  10  980  10   0
72      86552.5  20  960  20   0
73     -86552.5  20  960  20   0
74       104774  20  960  20   0
75      -104774  20  960  20   0
76       223214  40  920  40   0
77      -223214  40  920  40   0
78     -67640.7  10  980  10   0
79      -227865  40  920  40   0
80      67640.7  10  980  10   0
81       227865  40  920  40   0
82       202504  30  940  30   0
83      -202504  30  940  30   0
84      -222439  40  920  40   0
85       222439  40  920  40   0
86      -174890  30  940  30   0
87      -214777  30  940  30   0
88       174890  30  940  30   0
89       214777  30  940  30   0
90     -81997.1  20  960  20   0
91      81997.1  20  960  20   0
92      -209407  30  940  30   0
93       209407  30  940  30   0
94      -141217  20  960  20   0
95       141217  20  960  20   0
96      -237165  40  920  40   0
97      -204038  30  940  30   0
98       237165  40  920  40   0
99       204038  30  940  30   0
100      -161082  30  940  30   0
101       161082  30  940  30   0
102      22546.9  10  980  10   0
103     -22546.9  10  980  10   0
104      -198668  30  940  30   0
105       198668  30  940  30   0
106     -13528.1  10  980  10   0
107      13528.1  10  980  10   0
108            0  10  980  10   0
109           -0  10  980  10   0
110      -184094  30  940  30   0
111       184094  30  940  30   0
112      -211708  30  940  30   0
113      -187930  30  940  30   0
114       211708  30  940  30   0
115       187930  30  940  30   0
116      -182560  30  940  30   0
117       182560  30  940  30   0
118      -177191  30  940  30   0
119       177191  30  940  30   0
120      -232515  40  920  40   0
121       232515  40  920  40   0
122      -109329  20  960  20   0
123       109329  20  960  20   0
124     -77441.7  20  960  20   0
125      77441.7  20  960  20   0
126     -40584.4  10  980  10   0
127      -171821  30  940  30   0
128      40584.4  10  980  10   0
129       171821  30  940  30   0
130      -166452  30  940  30   0
131       166452  30  940  30   0
132      -147275  30  940  30   0
133       147275  30  940  30   0
134      -241815  40  920  40   0
135       241815  40  920  40   0
136      -155713  30  940  30   0
137       155713  30  940  30   0
138      -150344  30  940  30   0
139       150344  30  940  30   0
140     -95663.3  20  960  20   0
141      95663.3  20  960  20   0
142      -143495  20  960  20   0
143       143495  20  960  20   0
144      -138180  20  960  20   0
145       138180  20  960  20   0
146       127551  20  960  20   0
147      -127551  20  960  20   0
148      -132866  20  960  20   0
149       132866  20  960  20   0
150     -63131.3  10  980  10   0
151      63131.3  10  980  10   0
152      -122236  20  960  20   0
153       122236  20  960  20   0
154      -116922  20  960  20   0
155       116922  20  960  20   0
156      -251116  40  920  40   0
157      -111607  20  960  20   0
158       251116  40  920  40   0
159       111607  20  960  20   0
160      -197901  30  940  30   0
161       197901  30  940  30   0
162      -106293  20  960  20   0
163       106293  20  960  20   0
164      -100978  20  960  20   0
165       100978  20  960  20   0
166     -90348.6  20  960  20   0
167      90348.6  20  960  20   0
168       -85034  20  960  20   0
169        85034  20  960  20   0
170       179492  30  940  30   0
171      -179492  30  940  30   0
172     -79719.4  20  960  20   0
173      79719.4  20  960  20   0
174     -74404.8  20  960  20   0
175      74404.8  20  960  20   0
176     -68392.3  10  980  10   0
177      68392.3  10  980  10   0
178     -57870.4  10  980  10   0
179      57870.4  10  980  10   0
180       156480  30  940  30   0
181      -156480  30  940  30   0
182     -52609.4  10  980  10   0
183      52609.4  10  980  10   0
184     -47348.5  10  980  10   0
185      47348.5  10  980  10   0
186     -42087.5  10  980  10   0
187      42087.5  10  980  10   0
188     -36826.6  10  980  10   0
189      36826.6  10  980  10   0
190     -26304.7  10  980  10   0
191      26304.7  10  980  10   0
192     -21043.8  10  980  10   0
193      21043.8  10  980  10   0
194     -15782.8  10  980  10   0
195      15782.8  10  980  10   0
196     -10521.9  10  980  10   0
197      10521.9  10  980  10   0
198       132106  20  960  20   0
199      -132106  20  960  20   0

# Format of ADC events:
# id num dwell delay freq phase
# ..  ..    ns    us   Hz   rad
[ADC]
1 448 11200 190 0 5.93412
2 448 11200 190 0 0.349066
3 448 11200 190 0 3.49066
4 448 11200 190 0 3.83972
5 448 11200 190 0 1.74533
6 448 11200 190 0 0.698132
7 448 11200 190 0 2.79253
8 448 11200 190 0 4.88692

# Sequence Shapes
[SHAPES]

shape_id 1
num_samples 538
0
0
18
0.125581
0.1236006
0.1196708
0.1138538
0.1062412
0.0969532
0.0861361
0.0739606
0.0606188
0.0463208
0.0312925
0.0157706
0
-0.0157706
-0.0312925
-0.0463208
-0.0606188
-0.0739606
-0.0861361
-0.0969532
-0.1062412
-0.1138538
-0.1196708
-0.1236006
-0.125581
-0.125581
0
-0.1236006
-0.1196708
-0.1138538
-0.1062412
-0.0969532
-0.0861361
-0.0739606
-0.0606188
-0.0463208
-0.0312925
-0.0157706
0
0.0157706
0.0312925
0.0463208
0.0606188
0.0739606
0.0861361
0.0969532
0.1062412
0.1138538
0.1196708
0.1236006
0.125581
0.125581
0
0.1236006
0.1196708
0.1138538
0.1062412
0.0969532
0.0861361
0.0739606
0.0606188
0.0463208
0.0312925
0.0157706
0
-0.0157706
-0.0312925
-0.0463208
-0.0606188
-0.0739606
-0.0861361
-0.0969532
-0.1062412
-0.1138538
-0.1196708
-0.1236006
-0.125581
-0.125581
0
-0.1236006
-0.1196708
-0.1138538
-0.1062412
-0.0969532
-0.0861361
-0.0739606
-0.0606188
-0.0463208
-0.0312925
-0.0157706
0
0.0157706
0.0312925
0.0463208
0.0606188
0.0739606
0.0861361
0.0969532
0.1062412
0.1138538
0.1196708
0.1236006
0.125581
0.125581
0
0.1236006
0.1196708
0.1138538
0.1062412
0.0969532
0.0861361
0.0739606
0.0606188
0.0463208
0.0312925
0.0157706
0
-0.0157706
-0.0312925
-0.0463208
-0.0606188
-0.0739606
-0.0861361
-0.0969532
-0.1062412
-0.1138538
-0.1196708
-0.1236006
-0.125581
-0.125581
0
-0.1236006
-0.1196708
-0.1138538
-0.1062412
-0.0969532
-0.0861361
-0.0739606
-0.0606188
-0.0463208
-0.0312925
-0.0157706
0
0.0157706
0.0312925
0.0463208
0.0606188
0.0739606
0.0861361
0.0969532
0.1062412
0.1138538
0.1196708
0.1236006
0.125581
0.125581
0
0.1236006
0.1196708
0.1138538
0.1062412
0.0969532
0.0861361
0.0739606
0.0606188
0.0463208
0.0312925
0.0157706
0
-0.0157706
-0.0312925
-0.0463208
-0.0606188
-0.0739606
-0.0861361
-0.0969532
-0.1062412
-0.1138538
-0.1196708
-0.1236006
-0.125581
-0.125581
0
-0.1236006
-0.1196708
-0.1138538
-0.1062412
-0.0969532
-0.0861361
-0.0739606
-0.0606188
-0.0463208
-0.0312925
-0.0157706
0
0.0157706
0.0312925
0.0463208
0.0606188
0.0739606
0.0861361
0.0969532
0.1062412
0.1138538
0.1196708
0.1236006
0.125581
0.125581
0
0.1236006
0.1196708
0.1138538
0.1062412
0.0969532
0.0861361
0.0739606
0.0606188
0.0463208
0.0312925
0.0157706
0
-0.0157706
-0.0312925
-0.0463208
-0.0606188
-0.0739606
-0.0861361
-0.0969532
-0.1062412
-0.1138538
-0.1196708
-0.1236006
-0.125581
-0.125581
0
-0.1236006
-0.1196708
-0.1138538
-0.1062412
-0.0969532
-0.0861361
-0.0739606
-0.0606188
-0.0463208
-0.0312925
-0.0157706
0
0.0157706
0.0312925
0.0463208
0.0606188
0.0739606
0.0861361
0.0969532
0.1062412
0.1138538
0.1196708
0.1236006
0.125581
0.125581
0
0.1236006
0.1196708
0.1138538
0.1062412
0.0969532
0.0861361
0.0739606
0.0606188
0.0463208
0.0312925
0.0157706
0
-0.0157706
-0.0312925
-0.0463208
-0.0606188
-0.0739606
-0.0861361
-0.0969532
-0.1062412
-0.1138538
-0.1196708
-0.1236006
-0.125581
-0.125581
0
-0.1236006
-0.1196708
-0.1138538
-0.1062412
-0.0969532
-0.0861361
-0.0739606
-0.0606188
-0.0463208
-0.0312925
-0.0157706
0
0.0157706
0.0312925
0.0463208
0.0606188
0.0739606
0.0861361
0.0969532
0.1062412
0.1138538
0.1196708
0.1236006
0.125581
0.125581
0
0.1236006
0.1196708
0.1138538
0.1062412
0.0969532
0.0861361
0.0739606
0.0606188
0.0463208
0.0312925
0.0157706
0
-0.0157706
-0.0312925
-0.0463208
-0.0606188
-0.0739606
-0.0861361
-0.0969532
-0.1062412
-0.1138538
-0.1196708
-0.1236006
-0.125581
-0.125581
0
-0.1236006
-0.1196708
-0.1138538
-0.1062412
-0.0969532
-0.0861361
-0.0739606
-0.0606188
-0.0463208
-0.0312925
-0.0157706
0
0.0157706
0.0312925
0.0463208
0.0606188
0.0739606
0.0861361
0.0969532
0.1062412
0.1138538
0.1196708
0.1236006
0.125581
0.125581
0
0.1236006
0.1196708
0.1138538
0.1062412
0.0969532
0.0861361
0.0739606
0.0606188
0.0463208
0.0312925
0.0157706
0
-0.0157706
-0.0312925
-0.0463208
-0.0606188
-0.0739606
-0.0861361
-0.0969532
-0.1062412
-0.1138538
-0.1196708
-0.1236006
-0.125581
-0.125581
0
-0.1236006
-0.1196708
-0.1138538
-0.1062412
-0.0969532
-0.0861361
-0.0739606
-0.0606188
-0.0463208
-0.0312925
-0.0157706
0
0.0157706
0.0312925
0.0463208
0.0606188
0.0739606
0.0861361
0.0969532
0.1062412
0.1138538
0.1196708
0.1236006
0.125581
0.125581
0
0.1236006
0.1196708
0.1138538
0.1062412
0.0969532
0.0861361
0.0739606
0.0606188
0.0463208
0.0312925
0.0157706
0
-0.0157706
-0.0312925
-0.0463208
-0.0606188
-0.0739606
-0.0861361
-0.0969532
-0.1062412
-0.1138538
-0.1196708
-0.1236006
-0.125581
-0.125581
0
-0.1236006
-0.1196708
-0.1138538
-0.1062412
-0.0969532
-0.0861361
-0.0739606
-0.0606188
-0.0463208
-0.0312925
-0.0157706
0
0.0157706
0.0312925
0.0463208
0.0606188
0.0739606
0.0861361
0.0969532
0.1062412
0.1138538
0.1196708
0.1236006
0.125581
0.125581
0
0.1236006
0.1196708
0.1138538
0.1062412
0.0969532
0.0861361
0.0739606
0.0606188
0.0463208
0.0312925
0.0157706
0
-0.0157706
-0.0312925
-0.0463208
-0.0606188
-0.0739606
-0.0861361
-0.0969532
-0.1062412
-0.1138538
-0.1196708
-0.1236006
-0.125581
-0.125581
0
-0.1236006
-0.1196708
-0.1138538
-0.1062412
-0.0969532
-0.0861361
-0.0739606
-0.0606188
-0.0463208
-0.0312925
-0.0157706
0
0.0157706
0.0312925
0.0463208
0.0606188
0.0739606
0.0861361
0.0969532
0.1062412
0.1138538
0.1196708
0.1236006
0.125581
0
0
16

shape_id 2
num_samples 538
0
0.0555555556
0.111111111
0.166666667
0.222222222
0.277777778
0.333333333
0.388888889
0.444444444
0.5
0.555555556
0.611111111
0.666666667
0.722222222
0.777777778
0.833333333
0.888888889
0.944444444
1
1
0.992114701
0.968583161
0.929776486
0.87630668
0.809016994
0.728968627
0.63742399
0.535826795
0.425779292
0.309016994
0.187381315
0.0627905195
-0.0627905195
-0.187381315
-0.309016994
-0.425779292
-0.535826795
-0.63742399
-0.728968627
-0.809016994
-0.87630668
-0.929776486
-0.968583161
-0.992114701
-1
-0.992114701
-0.968583161
-0.929776486
-0.87630668
-0.809016994
-0.728968627
-0.63742399
-0.535826795
-0.425779292
-0.309016994
-0.187381315
-0.0627905195
0.0627905195
0.187381315
0.309016994
0.425779292
0.535826795
0.63742399
0.728968627
0.809016994
0.87630668
0.929776486
0.968583161
0.992114701
1
0.992114701
0.968583161
0.929776486
0.87630668
0.809016994
0.728968627
0.63742399
0.535826795
0.425779292
0.309016994
0.187381315
0.0627905195
-0.0627905195
-0.187381315
-0.309016994
-0.425779292
-0.535826795
-0.63742399
-0.728968627
-0.809016994
-0.87630668
-0.929776486
-0.968583161
-0.992114701
-1
-0.992114701
-0.968583161
-0.929776486
-0.87630668
-0.809016994
-0.728968627
-0.63742399
-0.535826795
-0.425779292
-0.309016994
-0.187381315
-0.0627905195
0.0627905195
0.187381315
0.309016994
0.425779292
0.535826795
0.63742399
0.728968627
0.809016994
0.87630668
0.929776486
0.968583161
0.992114701
1
0.992114701
0.968583161
0.929776486
0.87630668
0.809016994
0.728968627
0.63742399
0.535826795
0.425779292
0.309016994
0.187381315
0.0627905195
-0.0627905195
-0.187381315
-0.309016994
-0.425779292
-0.535826795
-0.63742399
-0.728968627
-0.809016994
-0.87630668
-0.929776486
-0.968583161
-0.992114701
-1
-0.992114701
-0.968583161
-0.929776486
-0.87630668
-0.809016994
-0.728968627
-0.63742399
-0.535826795
-0.425779292
-0.309016994
-0.187381315
-0.0627905195
0.0627905195
0.187381315
0.309016994
0.425779292
0.535826795
0.63742399
0.728968627
0.809016994
0.87630668
0.929776486
0.968583161
0.992114701
1
0.992114701
0.968583161
0.929776486
0.87630668
0.809016994
0.728968627
0.63742399
0.535826795
0.425779292
0.309016994
0.187381315
0.0627905195
-0.0627905195
-0.187381315
-0.309016994
-0.425779292
-0.535826795
-0.63742399
-0.728968627
-0.809016994
-0.87630668
-0.929776486
-0.968583161
-0.992114701
-1
-0.992114701
-0.968583161
-0.929776486
-0.87630668
-0.809016994
-0.728968627
-0.63742399
-0.535826795
-0.425779292
-0.309016994
-0.187381315
-0.0627905195
0.0627905195
0.187381315
0.309016994
0.425779292
0.535826795
0.63742399
0.728968627
0.809016994
0.87630668
0.929776486
0.968583161
0.992114701
1
0.992114701
0.968583161
0.929776486
0.87630668
0.809016994
0.728968627
0.63742399
0.535826795
0.425779292
0.309016994
0.187381315
0.0627905195
-0.0627905195
-0.187381315
-0.309016994
-0.425779292
-0.535826795
-0.63742399
-0.728968627
-0.809016994
-0.87630668
-0.929776486
-0.968583161
-0.992114701
-1
-0.992114701
-0.968583161
-0.929776486
-0.87630668
-0.809016994
-0.728968627
-0.63742399
-0.535826795
-0.425779292
-0.309016994
-0.187381315
-0.0627905195
0.0627905195
0.187381315
0.309016994
0.425779292
0.535826795
0.63742399
0.728968627
0.809016994
0.87630668
0.929776486
0.968583161
0.992114701
1
0.992114701
0.968583161
0.929776486
0.87630668
0.809016994
0.728968627
0.63742399
0.535826795
0.425779292
0.309016994
0.187381315
0.0627905195
-0.0627905195
-0.187381315
-0.309016994
-0.425779292
-0.535826795
-0.63742399
-0.728968627
-0.809016994
-0.87630668
-0.929776486
-0.968583161
-0.992114701
-1
-0.992114701
-0.968583161
-0.929776486
-0.87630668
-0.809016994
-0.728968627
-0.63742399
-0.535826795
-0.425779292
-0.309016994
-0.187381315
-0.0627905195
0.0627905195
0.187381315
0.309016994
0.425779292
0.535826795
0.63742399
0.728968627
0.809016994
0.87630668
0.929776486
0.968583161
0.992114701
1
0.992114701
0.968583161
0.929776486
0.87630668
0.809016994
0.728968627
0.63742399
0.535826795
0.425779292
0.309016994
0.187381315
0.0627905195
-0.0627905195
-0.187381315
-0.309016994
-0.425779292
-0.535826795
-0.63742399
-0.728968627
-0.809016994
-0.87630668
-0.929776486
-0.968583161
-0.992114701
-1
-0.992114701
-0.968583161
-0.929776486
-0.87630668
-0.809016994
-0.728968627
-0.63742399
-0.535826795
-0.425779292
-0.309016994
-0.187381315
-0.0627905195
0.0627905195
0.187381315
0.309016994
0.425779292
0.535826795
0.63742399
0.728968627
0.809016994
0.87630668
0.929776486
0.968583161
0.992114701
1
0.992114701
0.968583161
0.929776486
0.87630668
0.809016994
0.728968627
0.63742399
0.535826795
0.425779292
0.309016994
0.187381315
0.0627905195
-0.0627905195
-0.187381315
-0.309016994
-0.425779292
-0.535826795
-0.63742399
-0.728968627
-0.809016994
-0.87630668
-0.929776486
-0.968583161
-0.992114701
-1
-0.992114701
-0.968583161
-0.929776486
-0.87630668
-0.809016994
-0.728968627
-0.63742399
-0.535826795
-0.425779292
-0.309016994
-0.187381315
-0.0627905195
0.0627905195
0.187381315
0.309016994
0.425779292
0.535826795
0.63742399
0.728968627
0.809016994
0.87630668
0.929776486
0.968583161
0.992114701
1
0.992114701
0.968583161
0.929776486
0.87630668
0.809016994
0.728968627
0.63742399
0.535826795
0.425779292
0.309016994
0.187381315
0.0627905195
-0.0627905195
-0.187381315
-0.309016994
-0.425779292
-0.535826795
-0.63742399
-0.728968627
-0.809016994
-0.87630668
-0.929776486
-0.968583161
-0.992114701
-1
-0.992114701
-0.968583161
-0.929776486
-0.87630668
-0.809016994
-0.728968627
-0.63742399
-0.535826795
-0.425779292
-0.309016994
-0.187381315
-0.0627905195
0.0627905195
0.187381315
0.309016994
0.425779292
0.535826795
0.63742399
0.728968627
0.809016994
0.87630668
0.929776486
0.968583161
0.992114701
1
0.992114701
0.968583161
0.929776486
0.87630668
0.809016994
0.728968627
0.63742399
0.535826795
0.425779292
0.309016994
0.187381315
0.0627905195
-0.0627905195
-0.187381315
-0.309016994
-0.425779292
-0.535826795
-0.63742399
-0.728968627
-0.809016994
-0.87630668
-0.929776486
-0.968583161
-0.992114701
-1
-0.992114701
-0.968583161
-0.929776486
-0.87630668
-0.809016994
-0.728968627
-0.63742399
-0.535826795
-0.425779292
-0.309016994
-0.187381315
-0.0627905195
0.0627905195
0.187381315
0.309016994
0.425779292
0.535826795
0.63742399
0.728968627
0.809016994
0.87630668
0.929776486
0.968583161
0.992114701
1
0.944444444
0.888888889
0.833333333
0.777777778
0.722222222
0.666666667
0.611111111
0.555555556
0.5
0.444444444
0.388888889
0.333333333
0.277777778
0.222222222
0.166666667
0.111111111
0.0555555556
0

shape_id 3
num_samples 2
1
1

shape_id 4
num_samples 2
0
0

shape_id 5
num_samples 2
0
200


[SIGNATURE]
# This is the hash of the Pulseq file, calculated right before the [SIGNATURE] section was added
# It can be reproduced/verified with md5sum if the file trimmed to the position right above [SIGNATURE]
# The new line character preceding [SIGNATURE] BELONGS to the signature (and needs to be sripped away for recalculating/verification)
Type md5
Hash 79b7f519b95fa942f75747841ce79026
